# Timestep Ixx Iyy Izz Ixy Ixz Iyz Wall Velocity
00000000  0.127461E-13  0.127461E-13  0.127461E-13  0.000000E+00  0.100580E-28  0.129176E-28  0.500000E+01
00000100  0.127480E-13  0.127453E-13  0.127453E-13  0.822770E-25 -0.175093E-24 -0.269615E-23  0.500000E+01
00000200  0.127530E-13  0.127425E-13  0.127425E-13  0.154840E-24 -0.147132E-24 -0.696882E-23  0.500000E+01
00000300  0.127614E-13  0.127382E-13  0.127381E-13  0.213214E-24 -0.363532E-25 -0.757915E-23  0.500000E+01
00000400  0.127730E-13  0.127324E-13  0.127323E-13  0.287156E-24  0.787148E-25 -0.521025E-23  0.500000E+01
00000500  0.127876E-13  0.127252E-13  0.127250E-13  0.370087E-24  0.237376E-24 -0.802204E-23  0.500000E+01
00000600  0.128051E-13  0.127168E-13  0.127164E-13  0.477751E-24  0.456574E-24 -0.114312E-22  0.500000E+01
00000700  0.128255E-13  0.127072E-13  0.127066E-13  0.628539E-24  0.628066E-24 -0.162317E-22  0.500000E+01
00000800  0.128486E-13  0.126967E-13  0.126959E-13  0.853214E-24  0.784515E-24 -0.225325E-22  0.500000E+01
00000900  0.128743E-13  0.126851E-13  0.126841E-13  0.113384E-23  0.946173E-24 -0.291349E-22  0.500000E+01
00001000  0.129026E-13  0.126726E-13  0.126715E-13  0.147786E-23  0.112137E-23 -0.373636E-22  0.500000E+01
00001100  0.129335E-13  0.126592E-13  0.126579E-13  0.189463E-23  0.131362E-23 -0.478452E-22  0.500000E+01
00001200  0.129665E-13  0.126449E-13  0.126434E-13  0.237261E-23  0.151771E-23 -0.561420E-22  0.500000E+01
00001300  0.130020E-13  0.126297E-13  0.126282E-13  0.474826E-23  0.148439E-24 -0.594141E-22  0.500000E+01
00001400  0.130399E-13  0.126140E-13  0.126124E-13  0.655750E-23 -0.649897E-24 -0.653409E-22  0.500000E+01
00001500  0.130800E-13  0.125978E-13  0.125961E-13  0.801289E-23 -0.835312E-24 -0.750190E-22  0.500000E+01
00001600  0.131222E-13  0.125810E-13  0.125792E-13  0.900564E-23 -0.508222E-24 -0.875465E-22  0.500000E+01
00001700  0.131664E-13  0.125635E-13  0.125617E-13  0.960471E-23  0.213334E-24 -0.960778E-22  0.500000E+01
00001800  0.132124E-13  0.125457E-13  0.125437E-13  0.101235E-22  0.140194E-23 -0.103745E-21  0.500000E+01
00001900  0.132602E-13  0.125277E-13  0.125256E-13  0.337460E-23 -0.295168E-23 -0.115423E-21  0.500000E+01
00002000  0.133096E-13  0.125096E-13  0.125074E-13 -0.508709E-23 -0.891621E-23 -0.127896E-21  0.500000E+01
00002100  0.133605E-13  0.124913E-13  0.124891E-13 -0.138840E-22 -0.147201E-22 -0.140727E-21  0.500000E+01
00002200  0.134130E-13  0.124731E-13  0.124707E-13 -0.230647E-22 -0.204828E-22 -0.158134E-21  0.500000E+01
00002300  0.134669E-13  0.124550E-13  0.124523E-13 -0.339459E-22 -0.281089E-22 -0.178484E-21  0.500000E+01
00002400  0.135220E-13  0.124368E-13  0.124339E-13 -0.455107E-22 -0.348387E-22 -0.199595E-21  0.500000E+01
00002500  0.135783E-13  0.124188E-13  0.124157E-13 -0.572521E-22 -0.382008E-22 -0.227049E-21  0.500000E+01
00002600  0.136355E-13  0.124013E-13  0.123981E-13 -0.699073E-22 -0.373064E-22 -0.259518E-21  0.500000E+01
00002700  0.136934E-13  0.123843E-13  0.123808E-13 -0.839479E-22 -0.329554E-22 -0.293390E-21  0.500000E+01
00002800  0.137519E-13  0.123673E-13  0.123636E-13 -0.100184E-21 -0.275794E-22 -0.333056E-21  0.500000E+01
00002900  0.138112E-13  0.123506E-13  0.123467E-13 -0.119433E-21 -0.237574E-22 -0.376332E-21  0.500000E+01
00003000  0.138710E-13  0.123343E-13  0.123303E-13 -0.132192E-21 -0.300491E-22 -0.407845E-21  0.500000E+01
00003100  0.139312E-13  0.123184E-13  0.123144E-13 -0.141008E-21 -0.366556E-22 -0.436516E-21  0.500000E+01
00003200  0.139917E-13  0.123030E-13  0.122989E-13 -0.145962E-21 -0.440191E-22 -0.458699E-21  0.500000E+01
00003300  0.140523E-13  0.122880E-13  0.122839E-13 -0.145084E-21 -0.555288E-22 -0.477519E-21  0.500000E+01
00003400  0.141132E-13  0.122738E-13  0.122697E-13 -0.141605E-21 -0.682197E-22 -0.493237E-21  0.500000E+01
00003500  0.141739E-13  0.122605E-13  0.122564E-13 -0.133128E-21 -0.807892E-22 -0.506261E-21  0.500000E+01
00003600  0.142344E-13  0.122475E-13  0.122435E-13 -0.126585E-21 -0.864875E-22 -0.522049E-21  0.500000E+01
00003700  0.142944E-13  0.122350E-13  0.122309E-13 -0.119595E-21 -0.907728E-22 -0.534060E-21  0.500000E+01
00003800  0.143537E-13  0.122229E-13  0.122189E-13 -0.114596E-21 -0.911848E-22 -0.541204E-21  0.500000E+01
00003900  0.144124E-13  0.122114E-13  0.122075E-13 -0.107385E-21 -0.922505E-22 -0.548359E-21  0.500000E+01
00004000  0.144705E-13  0.122005E-13  0.121966E-13 -0.956810E-22 -0.985231E-22 -0.548073E-21  0.500000E+01
00004100  0.145277E-13  0.121902E-13  0.121864E-13 -0.772691E-22 -0.106289E-21 -0.539409E-21  0.500000E+01
00004200  0.145841E-13  0.121804E-13  0.121767E-13 -0.548694E-22 -0.115124E-21 -0.527102E-21  0.500000E+01
00004300  0.146393E-13  0.121711E-13  0.121675E-13 -0.344141E-22 -0.121556E-21 -0.517342E-21  0.500000E+01
00004400  0.146932E-13  0.121622E-13  0.121588E-13 -0.120954E-22 -0.134240E-21 -0.500011E-21  0.500000E+01
00004500  0.147458E-13  0.121539E-13  0.121506E-13 -0.207390E-22 -0.160724E-21 -0.470592E-21  0.500000E+01
00004600  0.147970E-13  0.121462E-13  0.121430E-13 -0.398720E-22 -0.187202E-21 -0.439698E-21  0.500000E+01
00004700  0.148466E-13  0.121400E-13  0.121370E-13 -0.585255E-22 -0.215642E-21 -0.410292E-21  0.500000E+01
00004800  0.148941E-13  0.121343E-13  0.121315E-13 -0.975098E-22 -0.236944E-21 -0.368162E-21  0.500000E+01
00004900  0.149395E-13  0.121287E-13  0.121260E-13 -0.822975E-22 -0.306668E-21 -0.383394E-21  0.500000E+01
00005000  0.149829E-13  0.121232E-13  0.121206E-13  0.126729E-21 -0.555687E-21 -0.631902E-21  0.500000E+01
00005100  0.150242E-13  0.121180E-13  0.121157E-13  0.578673E-21 -0.119351E-20 -0.124987E-20  0.500000E+01
00005200  0.150633E-13  0.121134E-13  0.121111E-13  0.115814E-20 -0.190624E-20 -0.190686E-20  0.500000E+01
00005300  0.151002E-13  0.121090E-13  0.121068E-13  0.159934E-20 -0.248143E-20 -0.243249E-20  0.500000E+01
00005400  0.151349E-13  0.121050E-13  0.121030E-13  0.198046E-20 -0.295214E-20 -0.281624E-20  0.500000E+01
00005500  0.151672E-13  0.121013E-13  0.120995E-13  0.257960E-20 -0.338055E-20 -0.319249E-20  0.500000E+01
00005600  0.151969E-13  0.120979E-13  0.120963E-13  0.323300E-20 -0.389904E-20 -0.365684E-20  0.500000E+01
00005700  0.152237E-13  0.120954E-13  0.120940E-13  0.378408E-20 -0.439102E-20 -0.416696E-20  0.500000E+01
00005800  0.152475E-13  0.120932E-13  0.120919E-13  0.443537E-20 -0.487945E-20 -0.458978E-20  0.500000E+01
00005900  0.152682E-13  0.120911E-13  0.120899E-13  0.535263E-20 -0.549051E-20 -0.518061E-20  0.500000E+01
00006000  0.152856E-13  0.120891E-13  0.120881E-13  0.637833E-20 -0.612111E-20 -0.588751E-20  0.500000E+01
00006100  0.152997E-13  0.120874E-13  0.120865E-13  0.764084E-20 -0.687063E-20 -0.659641E-20  0.500000E+01
00006200  0.153103E-13  0.120860E-13  0.120852E-13  0.855945E-20 -0.707578E-20 -0.695497E-20  0.500000E+01
00006300  0.153177E-13  0.120849E-13  0.120842E-13  0.946371E-20 -0.695429E-20 -0.725245E-20  0.500000E+01
00006400  0.153217E-13  0.120839E-13  0.120833E-13  0.102035E-19 -0.722792E-20 -0.759396E-20  0.500000E+01
00006500  0.153225E-13  0.120831E-13  0.120826E-13  0.111252E-19 -0.773021E-20 -0.822764E-20  0.500000E+01
00006600  0.153204E-13  0.120826E-13  0.120821E-13  0.123247E-19 -0.920037E-20 -0.895140E-20  0.500000E+01
00006700  0.153155E-13  0.120823E-13  0.120819E-13  0.148643E-19 -0.119473E-19 -0.102289E-19  0.500000E+01
00006800  0.153079E-13  0.120824E-13  0.120820E-13  0.181277E-19 -0.157849E-19 -0.124326E-19  0.500000E+01
00006900  0.152975E-13  0.120827E-13  0.120822E-13  0.216333E-19 -0.201784E-19 -0.153457E-19  0.500000E+01
00007000  0.152844E-13  0.120833E-13  0.120827E-13  0.259276E-19 -0.256210E-19 -0.191477E-19  0.500000E+01
00007100  0.152685E-13  0.120841E-13  0.120834E-13  0.302555E-19 -0.311992E-19 -0.231270E-19  0.500000E+01
00007200  0.152501E-13  0.120850E-13  0.120842E-13  0.343072E-19 -0.364997E-19 -0.263925E-19  0.500000E+01
00007300  0.152291E-13  0.120862E-13  0.120852E-13  0.385119E-19 -0.426105E-19 -0.296591E-19  0.500000E+01
00007400  0.152052E-13  0.120876E-13  0.120865E-13  0.432065E-19 -0.506942E-19 -0.333617E-19  0.500000E+01
00007500  0.151785E-13  0.120895E-13  0.120883E-13  0.493066E-19 -0.595073E-19 -0.375531E-19  0.500000E+01
00007600  0.151490E-13  0.120921E-13  0.120909E-13  0.564453E-19 -0.703395E-19 -0.430613E-19  0.500000E+01
00007700  0.151168E-13  0.120952E-13  0.120940E-13  0.668644E-19 -0.864991E-19 -0.515185E-19  0.500000E+01
00007800  0.150820E-13  0.120989E-13  0.120977E-13  0.788751E-19 -0.104254E-18 -0.627153E-19  0.500000E+01
00007900  0.150450E-13  0.121029E-13  0.121017E-13  0.912577E-19 -0.122417E-18 -0.757260E-19  0.500000E+01
00008000  0.150058E-13  0.121073E-13  0.121060E-13  0.103283E-18 -0.140588E-18 -0.889730E-19  0.500000E+01
00008100  0.149646E-13  0.121120E-13  0.121108E-13  0.114398E-18 -0.158245E-18 -0.100919E-18  0.500000E+01
00008200  0.149213E-13  0.121173E-13  0.121161E-13  0.123486E-18 -0.174083E-18 -0.110096E-18  0.500000E+01
00008300  0.148763E-13  0.121230E-13  0.121218E-13  0.130026E-18 -0.187852E-18 -0.116497E-18  0.500000E+01
00008400  0.148297E-13  0.121291E-13  0.121281E-13  0.135535E-18 -0.200742E-18 -0.121574E-18  0.500000E+01
00008500  0.147816E-13  0.121359E-13  0.121350E-13  0.139825E-18 -0.211805E-18 -0.125304E-18  0.500000E+01
00008600  0.147321E-13  0.121431E-13  0.121423E-13  0.143576E-18 -0.221667E-18 -0.128688E-18  0.500000E+01
00008700  0.146812E-13  0.121508E-13  0.121502E-13  0.146271E-18 -0.229987E-18 -0.131035E-18  0.500000E+01
00008800  0.146290E-13  0.121588E-13  0.121587E-13  0.149155E-18 -0.238440E-18 -0.133587E-18  0.500000E+01
00008900  0.145755E-13  0.121674E-13  0.121677E-13  0.150432E-18 -0.244699E-18 -0.135948E-18  0.500000E+01
00009000  0.145208E-13  0.121765E-13  0.121774E-13  0.151665E-18 -0.251424E-18 -0.139050E-18  0.500000E+01
00009100  0.144652E-13  0.121862E-13  0.121878E-13  0.154643E-18 -0.259106E-18 -0.142401E-18  0.500000E+01
00009200  0.144088E-13  0.121966E-13  0.121990E-13  0.158069E-18 -0.267850E-18 -0.146770E-18  0.500000E+01
00009300  0.143527E-13  0.122082E-13  0.122115E-13  0.161667E-18 -0.276973E-18 -0.151363E-18  0.500000E+01
00009400  0.142961E-13  0.122204E-13  0.122245E-13  0.167068E-18 -0.287316E-18 -0.157701E-18  0.500000E+01
00009500  0.142387E-13  0.122329E-13  0.122380E-13  0.173199E-18 -0.298166E-18 -0.165136E-18  0.500000E+01
00009600  0.141808E-13  0.122461E-13  0.122522E-13  0.179384E-18 -0.307760E-18 -0.174256E-18  0.500000E+01
00009700  0.141226E-13  0.122597E-13  0.122669E-13  0.184258E-18 -0.316647E-18 -0.183613E-18  0.500000E+01
00009800  0.140643E-13  0.122739E-13  0.122824E-13  0.188563E-18 -0.326572E-18 -0.192707E-18  0.500000E+01
00009900  0.140059E-13  0.122887E-13  0.122985E-13  0.191546E-18 -0.334493E-18 -0.201622E-18  0.500000E+01
00010000  0.139476E-13  0.123041E-13  0.123152E-13  0.194402E-18 -0.341188E-18 -0.211160E-18  0.500000E+01
00010100  0.138896E-13  0.123199E-13  0.123325E-13  0.197792E-18 -0.347407E-18 -0.221090E-18  0.500000E+01
00010200  0.138320E-13  0.123363E-13  0.123503E-13  0.199941E-18 -0.353046E-18 -0.231015E-18  0.500000E+01
00010300  0.137747E-13  0.123530E-13  0.123685E-13  0.201267E-18 -0.357606E-18 -0.240975E-18  0.500000E+01
00010400  0.137177E-13  0.123701E-13  0.123871E-13  0.200203E-18 -0.359355E-18 -0.252123E-18  0.500000E+01
00010500  0.136615E-13  0.123873E-13  0.124060E-13  0.198310E-18 -0.361008E-18 -0.262823E-18  0.500000E+01
00010600  0.136060E-13  0.124050E-13  0.124253E-13  0.195458E-18 -0.362070E-18 -0.272175E-18  0.500000E+01
00010700  0.135513E-13  0.124231E-13  0.124451E-13  0.192145E-18 -0.364563E-18 -0.279814E-18  0.500000E+01
00010800  0.134973E-13  0.124416E-13  0.124653E-13  0.187348E-18 -0.364662E-18 -0.287259E-18  0.500000E+01
00010900  0.134443E-13  0.124604E-13  0.124857E-13  0.181709E-18 -0.365062E-18 -0.294363E-18  0.500000E+01
00011000  0.133925E-13  0.124795E-13  0.125065E-13  0.175336E-18 -0.365455E-18 -0.300691E-18  0.500000E+01
00011100  0.133417E-13  0.124989E-13  0.125275E-13  0.168618E-18 -0.365019E-18 -0.305569E-18  0.500000E+01
00011200  0.132919E-13  0.125183E-13  0.125485E-13  0.162234E-18 -0.364364E-18 -0.309517E-18  0.500000E+01
00011300  0.132432E-13  0.125380E-13  0.125697E-13  0.154849E-18 -0.362391E-18 -0.312998E-18  0.500000E+01
00011400  0.131959E-13  0.125577E-13  0.125909E-13  0.147736E-18 -0.358498E-18 -0.316005E-18  0.500000E+01
00011500  0.131499E-13  0.125774E-13  0.126121E-13  0.141185E-18 -0.352896E-18 -0.317456E-18  0.500000E+01
00011600  0.131053E-13  0.125969E-13  0.126329E-13  0.134105E-18 -0.346846E-18 -0.318235E-18  0.500000E+01
00011700  0.130619E-13  0.126162E-13  0.126534E-13  0.123507E-18 -0.340296E-18 -0.319425E-18  0.500000E+01
00011800  0.130200E-13  0.126352E-13  0.126734E-13  0.112864E-18 -0.333395E-18 -0.319311E-18  0.500000E+01
00011900  0.129799E-13  0.126538E-13  0.126929E-13  0.102841E-18 -0.326931E-18 -0.317759E-18  0.500000E+01
00012000  0.129414E-13  0.126720E-13  0.127120E-13  0.931761E-19 -0.319838E-18 -0.314593E-18  0.500000E+01
00012100  0.129043E-13  0.126902E-13  0.127310E-13  0.820613E-19 -0.311358E-18 -0.310569E-18  0.500000E+01
00012200  0.128685E-13  0.127080E-13  0.127496E-13  0.697695E-19 -0.303328E-18 -0.305794E-18  0.500000E+01
00012300  0.128341E-13  0.127253E-13  0.127675E-13  0.559735E-19 -0.293799E-18 -0.301594E-18  0.500000E+01
00012400  0.128010E-13  0.127417E-13  0.127845E-13  0.431391E-19 -0.284074E-18 -0.296321E-18  0.500000E+01
00012500  0.127693E-13  0.127572E-13  0.128004E-13  0.295166E-19 -0.274456E-18 -0.289223E-18  0.500000E+01
00012600  0.127393E-13  0.127720E-13  0.128155E-13  0.149953E-19 -0.265910E-18 -0.285589E-18  0.500000E+01
00012700  0.127110E-13  0.127863E-13  0.128301E-13  0.149820E-20 -0.256483E-18 -0.284871E-18  0.500000E+01
00012800  0.126841E-13  0.127998E-13  0.128439E-13 -0.130882E-19 -0.246644E-18 -0.285543E-18  0.500000E+01
00012900  0.126588E-13  0.128127E-13  0.128569E-13 -0.273713E-19 -0.236912E-18 -0.284810E-18  0.500000E+01
00013000  0.126353E-13  0.128248E-13  0.128691E-13 -0.295349E-19 -0.243283E-18 -0.281847E-18  0.500000E+01
00013100  0.126137E-13  0.128361E-13  0.128803E-13  0.371500E-22 -0.282842E-18 -0.265968E-18  0.500000E+01
00013200  0.125939E-13  0.128464E-13  0.128906E-13  0.262991E-19 -0.341580E-18 -0.252997E-18  0.500000E+01
00013300  0.125759E-13  0.128559E-13  0.129000E-13  0.227630E-19 -0.453920E-18 -0.264296E-18  0.500000E+01
00013400  0.125597E-13  0.128644E-13  0.129084E-13  0.212597E-19 -0.548380E-18 -0.272335E-18  0.500000E+01
00013500  0.125455E-13  0.128719E-13  0.129156E-13  0.245355E-19 -0.628682E-18 -0.271276E-18  0.500000E+01
00013600  0.125330E-13  0.128782E-13  0.129215E-13  0.334370E-20 -0.688275E-18 -0.277820E-18  0.500000E+01
00013700  0.125221E-13  0.128837E-13  0.129263E-13 -0.168372E-19 -0.719209E-18 -0.289252E-18  0.500000E+01
00013800  0.125128E-13  0.128882E-13  0.129300E-13 -0.618553E-19 -0.758255E-18 -0.311454E-18  0.500000E+01
